
rho             theta           phi             
0.89210124452   -0.08257039729  0.00000000000   
0.89207485642   -0.08257504109  0.00000055200   
0.89204613523   -0.08258009579  0.00000115285   
0.89201745663   -0.08258514333  0.00000175285   
0.89198844565   -0.08259024971  0.00000235985   
0.89195900800   -0.08259543155  0.00000297582   
0.89192936816   -0.08260064933  0.00000359607   
0.89189950160   -0.08260590738  0.00000422110   
0.89186919896   -0.08261124257  0.00000485532   
0.89183867150   -0.08261661773  0.00000549428   
0.89180784885   -0.08262204524  0.00000613947   
0.89177679615   -0.08262751366  0.00000678953   
0.89174553298   -0.08263301953  0.00000744405   
0.89171396313   -0.08263857983  0.00000810504   
0.89168214274   -0.08264418465  0.00000877132   
0.89165002121   -0.08264984294  0.00000944397   
0.89161770138   -0.08265553659  0.00001012082   
0.89158515688   -0.08266127024  0.00001080243   
0.89155232710   -0.08266705459  0.00001149008   
0.89151922250   -0.08267288781  0.00001218353   
0.89148576506   -0.08267878365  0.00001288444   
0.89145212529   -0.08268471208  0.00001358922   
0.89141826181   -0.08269068041  0.00001429875   
0.89138403524   -0.08269671320  0.00001501596   
0.89134954764   -0.08270279248  0.00001573869   
0.89131488959   -0.08270890230  0.00001646505   
0.89127996749   -0.08271505916  0.00001719702   
0.89124466733   -0.08272128319  0.00001793697   
0.89120913662   -0.08272754837  0.00001868182   
0.89117338595   -0.08273385286  0.00001943135   
0.89113744322   -0.08274019175  0.00002018497   
0.89110122154   -0.08274658036  0.00002094452   
0.89106473036   -0.08275301705  0.00002170978   
0.89102790336   -0.08275951353  0.00002248215   
0.89099091672   -0.08276603872  0.00002325794   
0.89095373865   -0.08277259825  0.00002403783   
0.89091633343   -0.08277919843  0.00002482254   
0.89087852763   -0.08278586987  0.00002561574   
0.89084051859   -0.08279257776  0.00002641328   
0.89080220801   -0.08279933947  0.00002721722   
0.89076377892   -0.08280612270  0.00002802372   
0.89072504987   -0.08281295948  0.00002883660   
0.89068600420   -0.08281985278  0.00002965620   
0.89064697283   -0.08282674418  0.00003047559   
0.89060752174   -0.08283371031  0.00003130386   
0.89056778704   -0.08284072717  0.00003213817   
0.89052784460   -0.08284778136  0.00003297693   
0.89048772801   -0.08285486697  0.00003381943   
0.89044737478   -0.08286199504  0.00003466698   
0.89040685746   -0.08286915276  0.00003551807   
0.89036601915   -0.08287636787  0.00003637598   
0.89032499472   -0.08288361655  0.00003723789   
0.89028360852   -0.08289092985  0.00003810749   
0.89024195546   -0.08289829102  0.00003898279   
0.89020015959   -0.08290567814  0.00003986119   
0.89015812041   -0.08291310898  0.00004074479   
0.89011567911   -0.08292061164  0.00004163693   
0.89007316235   -0.08292812838  0.00004253076   
0.89003044552   -0.08293568123  0.00004342888   
0.88998750206   -0.08294327491  0.00004433187   
0.88994430323   -0.08295091451  0.00004524033   
0.88990077293   -0.08295861350  0.00004615585   
0.88985712174   -0.08296633466  0.00004707402   
0.88981316550   -0.08297411056  0.00004799871   
0.88976917677   -0.08298189301  0.00004892418   
0.88972477081   -0.08298975007  0.00004985853   
0.88968016173   -0.08299764389  0.00005079726   
0.88963535530   -0.08300557346  0.00005174024   
0.88959025623   -0.08301355565  0.00005268950   
0.88954511540   -0.08302154606  0.00005363974   
0.88949954848   -0.08302961275  0.00005459905   
0.88945378195   -0.08303771563  0.00005556268   
0.88940796786   -0.08304582780  0.00005652742   
0.88936182159   -0.08305399965  0.00005749927   
0.88931560584   -0.08306218469  0.00005847269   
0.88926902960   -0.08307043446  0.00005945382   
0.88922229263   -0.08307871360  0.00006043845   
0.88917516581   -0.08308706271  0.00006143140   
0.88912800405   -0.08309541892  0.00006242521   
0.88908062937   -0.08310381378  0.00006342363   
0.88903305979   -0.08311224411  0.00006442627   
0.88898511380   -0.08312074208  0.00006543697   
0.88893695181   -0.08312927929  0.00006645234   
0.88888874110   -0.08313782610  0.00006746886   
0.88884022037   -0.08314642883  0.00006849204   
0.88879157398   -0.08315505482  0.00006951799   
0.88874263907   -0.08316373295  0.00007055016   
0.88869347550   -0.08317245263  0.00007158727   
0.88864396540   -0.08318123478  0.00007263182   
0.88859438205   -0.08319003093  0.00007367805   
0.88854443199   -0.08319889316  0.00007473215   
0.88849433888   -0.08320778180  0.00007578939   
0.88844411376   -0.08321669491  0.00007684956   
0.88839352325   -0.08322567392  0.00007791757   
0.88834289865   -0.08323466003  0.00007898644   
0.88829210016   -0.08324367808  0.00008005911   
0.88824098245   -0.08325275387  0.00008113867   
0.88818968374   -0.08326186288  0.00008222218   
0.88813825215   -0.08327099658  0.00008330864   
0.88808651993   -0.08328018476  0.00008440159   
0.88803465901   -0.08328939692  0.00008549740   
0.88798248661   -0.08329866553  0.00008659993   
0.88793019778   -0.08330795596  0.00008770507   
0.88787768996   -0.08331728643  0.00008881498   
0.88782492256   -0.08332666417  0.00008993053   
0.88777213994   -0.08333604578  0.00009104654   
0.88771893727   -0.08334550321  0.00009217159   
0.88766555285   -0.08335499413  0.00009330063   
0.88761218284   -0.08336448366  0.00009442951   
0.88755837028   -0.08337405308  0.00009556791   
0.88750444007   -0.08338364463  0.00009670895   
0.88745028998   -0.08339327649  0.00009785479   
0.88739603740   -0.08340292780  0.00009900296   
0.88734141481   -0.08341264617  0.00010015912   
0.88728654891   -0.08342240908  0.00010132058   
0.88723160490   -0.08343218713  0.00010248386   
0.88717642565   -0.08344200831  0.00010365228   
0.88712116296   -0.08345184560  0.00010482262   
0.88706556760   -0.08346174340  0.00010600018   
0.88700981666   -0.08347167018  0.00010718119   
0.88695376281   -0.08348165220  0.00010836879   
0.88689755906   -0.08349166222  0.00010955973   
0.88684112144   -0.08350171522  0.00011075579   
0.88678454393   -0.08351179446  0.00011195498   
0.88672795698   -0.08352187672  0.00011315455   
0.88667093373   -0.08353203806  0.00011436353   
0.88661385449   -0.08354221073  0.00011557388   
0.88655665260   -0.08355240662  0.00011678700   
0.88649908337   -0.08356266936  0.00011800808   
0.88644121952   -0.08357298601  0.00011923559   
0.88638335228   -0.08358330466  0.00012046335   
0.88632510974   -0.08359369164  0.00012169924   
0.88626671027   -0.08360410803  0.00012293865   
0.88620809177   -0.08361456491  0.00012418289   
0.88614949313   -0.08362501968  0.00012542689   
0.88609055799   -0.08363553593  0.00012667822   
0.88603155127   -0.08364606641  0.00012793125   
0.88597235145   -0.08365663280  0.00012918856   
0.88591278328   -0.08366726642  0.00013045389   
0.88585304232   -0.08367793237  0.00013172308   
0.88579310878   -0.08368863420  0.00013299654   
0.88573290937   -0.08369938501  0.00013427585   
0.88567256398   -0.08371016341  0.00013555845   
0.88561205040   -0.08372097338  0.00013684482   
0.88555131789   -0.08373182399  0.00013813604   
0.88549049919   -0.08374269155  0.00013942929   
0.88542932325   -0.08375362451  0.00014073034   
0.88536816028   -0.08376455671  0.00014203130   
0.88530667346   -0.08377554837  0.00014333935   
0.88524516047   -0.08378654629  0.00014464817   
0.88518341384   -0.08379758758  0.00014596215   
0.88512136051   -0.08380868532  0.00014728286   
0.88505913045   -0.08381981629  0.00014860754   
0.88499665553   -0.08383099268  0.00014993764   
0.88493402748   -0.08384219811  0.00015127121   
0.88487119340   -0.08385344205  0.00015260938   
0.88480828192   -0.08386470151  0.00015394940   
0.88474512673   -0.08387600625  0.00015529482   
0.88468162949   -0.08388737390  0.00015664775   
0.88461805106   -0.08389875778  0.00015800262   
0.88455432017   -0.08391017066  0.00015936095   
0.88449034133   -0.08392162966  0.00016072479   
0.88442623963   -0.08393311239  0.00016209146   
0.88436192079   -0.08394463575  0.00016346298   
0.88429744069   -0.08395618974  0.00016483816   
0.88423274246   -0.08396778458  0.00016621822   
0.88416782522   -0.08397942044  0.00016760317   
0.88410284220   -0.08399106986  0.00016898975   
0.88403768543   -0.08400275221  0.00017038026   
0.88397227610   -0.08401448164  0.00017177639   
0.88390653093   -0.08402627311  0.00017317992   
0.88384081224   -0.08403806164  0.00017458311   
0.88377488533   -0.08404988936  0.00017599097   
0.88370886298   -0.08406173603  0.00017740111   
0.88364252025   -0.08407364204  0.00017881833   
0.88357589497   -0.08408560062  0.00018024181   
0.88350923557   -0.08409756720  0.00018166626   
0.88344240531   -0.08410956633  0.00018309460   
0.88337538671   -0.08412160117  0.00018452721   
0.88330812075   -0.08413368233  0.00018596534   
0.88324066014   -0.08414580037  0.00018740788   
0.88317295340   -0.08415796455  0.00018885592   
0.88310506541   -0.08417016325  0.00019030808   
0.88303702620   -0.08418239106  0.00019176373   
0.88296874268   -0.08419466475  0.00019322485   
0.88290037014   -0.08420695642  0.00019468813   
0.88283180581   -0.08421928455  0.00019615576   
0.88276306198   -0.08423164694  0.00019762748   
0.88269407559   -0.08424405497  0.00019910465   
0.88262515513   -0.08425645315  0.00020058066   
0.88255589485   -0.08426891449  0.00020206421   
0.88248654861   -0.08428139333  0.00020354985   
0.88241689721   -0.08429392913  0.00020504229   
0.88234698851   -0.08430651331  0.00020654051   
0.88227699353   -0.08431911509  0.00020804083   
0.88220683139   -0.08433174905  0.00020954500   
0.88213653320   -0.08434440960  0.00021105235   
0.88206587087   -0.08435713785  0.00021256777   
0.88199504221   -0.08436989818  0.00021408703   
0.88192416724   -0.08438266898  0.00021560755   
0.88185310896   -0.08439547496  0.00021713228   
0.88178178444   -0.08440833108  0.00021866299   
0.88171025573   -0.08442122616  0.00022019835   
0.88163856234   -0.08443415312  0.00022173752   
0.88156663825   -0.08444712387  0.00022328192   
0.88149459461   -0.08446011839  0.00022482917   
0.88142232642   -0.08447315563  0.00022638152   
0.88134992296   -0.08448621949  0.00022793705   
0.88127730873   -0.08449932363  0.00022949739   
0.88120448477   -0.08451246787  0.00023106253   
0.88113165818   -0.08452561484  0.00023262800   
0.88105854198   -0.08453881637  0.00023419999   
0.88098520649   -0.08455205978  0.00023577698   
0.88091165659   -0.08456534421  0.00023735887   
0.88083794625   -0.08457865993  0.00023894450   
0.88076399652   -0.08459202123  0.00024053557   
0.88068988153   -0.08460541473  0.00024213049   
0.88061558176   -0.08461884397  0.00024372969   
0.88054117770   -0.08463229443  0.00024533143   
0.88046679059   -0.08464574418  0.00024693309   
0.88039201378   -0.08465926678  0.00024854345   
0.88031711598   -0.08467281365  0.00025015672   
0.88024208543   -0.08468638693  0.00025177314   
0.88016676183   -0.08470001566  0.00025339619   
0.88009120391   -0.08471368921  0.00025502459   
0.88001555990   -0.08472738080  0.00025665515   
0.87993971852   -0.08474111056  0.00025829027   
0.87986370107   -0.08475487467  0.00025992950   
0.87978746814   -0.08476868029  0.00026157369   
0.87971103032   -0.08478252551  0.00026322261   
0.87963443420   -0.08479640191  0.00026487526   
0.87955771036   -0.08481030397  0.00026653099   
0.87948068603   -0.08482426302  0.00026819351   
0.87940355988   -0.08483824308  0.00026985856   
0.87932627648   -0.08485225420  0.00027152732   
0.87924877781   -0.08486630692  0.00027320105   
0.87917118078   -0.08488038006  0.00027487723   
0.87909321170   -0.08489452328  0.00027656177   
0.87901518114   -0.08490868026  0.00027824797   
0.87893704983   -0.08492285815  0.00027993668   
0.87885866925   -0.08493708392  0.00028163110   
0.87885084366   -0.08493850437  0.00028180029   
0.87881165601   -0.08494561790  0.00028264758   
0.87880387672   -0.08494703011  0.00028281579   
0.87879998560   -0.08494773649  0.00028289993   
0.87879803968   -0.08494808975  0.00028294201   
0.87878830637   -0.08494985675  0.00028315248   
0.87878826141   -0.08494986491  0.00028315345   
0.87878803661   -0.08494990572  0.00028315831   
0.87878792420   -0.08494992613  0.00028316074   
0.87878791858   -0.08494992715  0.00028316086   
0.87878789048   -0.08494993225  0.00028316147   
0.87878788908   -0.08494993250  0.00028316150   
0.87878788205   -0.08494993378  0.00028316165   
0.87878788167   -0.08494993385  0.00028316166   
0.87878787979   -0.08494993419  0.00028316170   
0.87878787963   -0.08494993422  0.00028316170   
0.87878787882   -0.08494993437  0.00028316172   
0.87878787880   -0.08494993437  0.00028316172   
0.87878787879   -0.08494993437  0.00028316172   
0.87878787878   -0.08494993437  0.00028316172   
0.87878787878   -0.08494993437  0.00028316172   
0.87878787877   -0.08494993438  0.00028316172   
0.87878787870   -0.08494993439  0.00028316172   
0.87878787837   -0.08494993445  0.00028316173   
0.87878787669   -0.08494993475  0.00028316177   
0.87878786829   -0.08494993628  0.00028316195   
0.87878782630   -0.08494994390  0.00028316286   
0.87878761637   -0.08494998201  0.00028316740   
0.87878656664   -0.08495017258  0.00028319010   
0.87878131677   -0.08495112567  0.00028330362   
0.87875547825   -0.08495581670  0.00028386237   
0.87868020210   -0.08496948492  0.00028549043   
0.87860391320   -0.08498333958  0.00028714071   
0.87852746754   -0.08499722529  0.00028879471   
0.87845087685   -0.08501113994  0.00029045218   
0.87837408394   -0.08502509394  0.00029211435   
0.87829715731   -0.08503907485  0.00029377975   
0.87821998080   -0.08505310382  0.00029545089   
0.87814266604   -0.08506716056  0.00029712537   
0.87806512949   -0.08508126030  0.00029880498   
0.87798734971   -0.08509540694  0.00030049020   
0.87790949217   -0.08510957041  0.00030217745   
0.87783150723   -0.08512375976  0.00030386780   
0.87775337802   -0.08513797807  0.00030556162   
0.87767485065   -0.08515227156  0.00030726442   
0.87759618159   -0.08516659360  0.00030897064   
0.87751743068   -0.08518093329  0.00031067898   
0.87743845728   -0.08519531627  0.00031239250   
0.87735917904   -0.08520975756  0.00031411299   
0.87727975471   -0.08522422826  0.00031583701   
0.87720012654   -0.08523873893  0.00031756580   
0.87712043167   -0.08525326457  0.00031929640   
0.87704056096   -0.08526782511  0.00032103118   
0.87696048052   -0.08528242673  0.00032277088   
0.87688005981   -0.08529709328  0.00032451833   
0.87679955278   -0.08531177845  0.00032626802   
0.87671885715   -0.08532650094  0.00032802218   
0.87663803877   -0.08534124873  0.00032977937   
0.87655700767   -0.08535603827  0.00033154157   
0.87647571048   -0.08537087932  0.00033330991   
0.87639417165   -0.08538576745  0.00033508390   
0.87631246037   -0.08540069005  0.00033686200   
0.87623061550   -0.08541564004  0.00033864340   
0.87614869654   -0.08543060657  0.00034042679   
0.87606657840   -0.08544561250  0.00034221489   
0.87598421024   -0.08546066715  0.00034400882   
0.87590163839   -0.08547576208  0.00034580757   
0.87581899751   -0.08549087269  0.00034760821   
0.87573601730   -0.08550604842  0.00034941664   
0.87565297674   -0.08552123829  0.00035122677   
0.87556965452   -0.08553648278  0.00035304343   
0.87548612706   -0.08555176795  0.00035486496   
0.87540234096   -0.08556710360  0.00035669253   
0.87531851076   -0.08558245048  0.00035852146   
0.87523450860   -0.08559783200  0.00036035454   
0.87515029793   -0.08561325489  0.00036219257   
0.87506585496   -0.08562872353  0.00036403607   
0.87498132787   -0.08564421079  0.00036588182   
0.87489667085   -0.08565972507  0.00036773081   
0.87481168742   -0.08567530242  0.00036958734   
0.87472647854   -0.08569092436  0.00037144920   
0.87464111672   -0.08570657762  0.00037331482   
0.87455568489   -0.08572224701  0.00037518239   
0.87446988729   -0.08573798679  0.00037705837   
0.87438398099   -0.08575374985  0.00037893714   
0.87429789767   -0.08576954872  0.00038082020   
0.87421159138   -0.08578539188  0.00038270857   
0.87412514210   -0.08580126465  0.00038460049   
0.87403845579   -0.08581718434  0.00038649802   
0.87395147810   -0.08583316095  0.00038840236   
0.87386440090   -0.08584915927  0.00039030931   
0.87377716287   -0.08586519058  0.00039222022   
0.87368974019   -0.08588125927  0.00039413560   
0.87360214557   -0.08589736304  0.00039605519   
0.87351441423   -0.08591349542  0.00039797822   
0.87342660549   -0.08592964553  0.00039990337   
0.87333849864   -0.08594585398  0.00040183551   
0.87325015763   -0.08596210905  0.00040377323   
0.87316164325   -0.08597839956  0.00040571519   
0.87307290100   -0.08599473558  0.00040766260   
0.87298404654   -0.08601109584  0.00040961293   
0.87289500974   -0.08602749327  0.00041156771   
0.87280586963   -0.08604391334  0.00041352521   
0.87271642239   -0.08606039361  0.00041548991   
0.87262677733   -0.08607691398  0.00041745941   
0.87253703704   -0.08609345556  0.00041943147   
0.87244703562   -0.08611004895  0.00042140972   
0.87235687591   -0.08612667523  0.00042339193   
0.87226663939   -0.08614331938  0.00042537628   
0.87217618914   -0.08616000667  0.00042736580   
0.87208536273   -0.08617676712  0.00042936407   
0.87199442652   -0.08619355160  0.00043136522   
0.87190333130   -0.08621036921  0.00043337035   
0.87181214535   -0.08622720736  0.00043537795   
0.87172068544   -0.08624409992  0.00043739207   
0.87162906574   -0.08626102582  0.00043941018   
0.87153725256   -0.08627799131  0.00044143303   
0.87144526599   -0.08629499271  0.00044346019   
0.87135307768   -0.08631203528  0.00044549228   
0.87126082418   -0.08632909380  0.00044752630   
0.87116815651   -0.08634623282  0.00044956994   
0.87107542375   -0.08636338781  0.00045161551   
0.87098262377   -0.08638055919  0.00045366306   
0.87088950751   -0.08639779306  0.00045571808   
0.87079627806   -0.08641505186  0.00045777610   
0.87070275073   -0.08643236982  0.00045984119   
0.87060919412   -0.08644969721  0.00046190744   
0.87051529194   -0.08646709264  0.00046398182   
0.87042114777   -0.08648453698  0.00046606206   
0.87032692749   -0.08650199949  0.00046814449   
0.87023261572   -0.08651948305  0.00047022945   
0.87013813316   -0.08653700237  0.00047231870   
0.87004335614   -0.08655458042  0.00047441498   
0.86994832477   -0.08657220980  0.00047651740   
0.86985320490   -0.08658985976  0.00047862231   
0.86975797114   -0.08660753503  0.00048073025   
0.86966251343   -0.08662525606  0.00048284368   
0.86956675479   -0.08664303718  0.00048496430   
0.86947081189   -0.08666085676  0.00048708952   
0.86937481700   -0.08667869025  0.00048921643   
0.86927869350   -0.08669655190  0.00049134673   
0.86918220764   -0.08671448517  0.00049348558   
0.86908572330   -0.08673242247  0.00049562495   
0.86898893812   -0.08675042002  0.00049777152   
0.86889186974   -0.08676847458  0.00049992492   
0.86879462090   -0.08678656709  0.00050208287   
0.86869728213   -0.08680468071  0.00050424336   
0.86859975486   -0.08682283381  0.00050640858   
0.86850210196   -0.08684101472  0.00050857714   
0.86840421406   -0.08685924382  0.00051075148   
0.86830609386   -0.08687752063  0.00051293153   
0.86820780690   -0.08689583299  0.00051511585   
0.86810939008   -0.08691417404  0.00051730361   
0.86801068058   -0.08693257416  0.00051949844   
0.86791183514   -0.08695100415  0.00052169686   
0.86781293386   -0.08696944911  0.00052389709   
0.86771364363   -0.08698797118  0.00052610654   
0.86761428157   -0.08700651124  0.00052831816   
0.86751469397   -0.08702509800  0.00053053538   
0.86741493957   -0.08704372053  0.00053275689   
0.86731508350   -0.08706236668  0.00053498124   
0.86721492119   -0.08708107469  0.00053721299   
0.86711467097   -0.08709980380  0.00053944729   
0.86701422048   -0.08711857504  0.00054168663   
0.86691353906   -0.08713739416  0.00054393171   
0.86681269362   -0.08715624868  0.00054618104   
